wavelength n
0.00525 1.000135800000037
0.000375 1.000135800007262
0.00020833333335 1.0001358000235288
0.00014583333335 1.000135800048018
0.0001125 1.0001358000806886
9.1666666665e-05 1.0001358001215332
7.738095238e-05 1.0001358001705491
6.6964285715e-05 1.0001358002277356
5.902777778e-05 1.0001358002930925
5.2777777780000005e-05 1.0001358003666194
4.7727272725e-05 1.000135800448316
4.3560606060000006e-05 1.0001358005381829
4.0064102565000006e-05 1.000135800636219
3.7087912085e-05 1.0001358007424255
3.4523809520000005e-05 1.0001358008568015
3.2291666665e-05 1.0001358009793473
3.0330882355e-05 1.0001358011100627
2.8594771245e-05 1.000135801248948
2.7046783624999998e-05 1.000135801396003
2.5657894735e-05 1.0001358015512278
2.4404761905e-05 1.0001358017146222
2.3268398270000002e-05 1.0001358018861866
2.2233201580000002e-05 1.0001358020659206
2.1286231880000003e-05 1.0001358022538243
2.0416666665e-05 1.0001358024498976
1.9615384615e-05 1.0001358026541407
1.8874643874999998e-05 1.0001358028665537
1.818783069e-05 1.0001358030871363
1.7549261085e-05 1.0001358033158887
1.695402299e-05 1.0001358035528107
1.6397849465000002e-05 1.0001358037979027
1.5877016130000002e-05 1.000135804051164
1.5388257575e-05 1.0001358043125954
1.492869875e-05 1.0001358045821964
1.4495798319999998e-05 1.0001358048599671
1.4087301589999999e-05 1.0001358051459077
1.37012012e-05 1.0001358054400178
1.3335704124999999e-05 1.0001358057422978
1.2989203779999999e-05 1.0001358060527474
1.266025641e-05 1.0001358063713668
1.2347560975e-05 1.0001358066981558
1.2049941925e-05 1.0001358070331148
1.1766334440000002e-05 1.0001358073762434
1.149577167e-05 1.0001358077275415
1.1237373735e-05 1.0001358080870095
1.0990338165000002e-05 1.0001358084546474
1.0753931545000001e-05 1.0001358088304548
1.052748227e-05 1.0001358092144321
1.031037415e-05 1.000135809606579
1.0102040815e-05 1.0001358100068958
9.9019607845e-06 1.0001358104153821
9.709653092e-06 1.0001358108320382
9.5246734395e-06 1.0001358112568641
9.346610761500001e-06 1.0001358116898595
9.175084175e-06 1.0001358121310249
9.00974026e-06 1.0001358125803599
8.850250627e-06 1.0001358130378648
8.696309739999999e-06 1.0001358135035392
8.547632963e-06 1.0001358139773835
8.403954802e-06 1.0001358144593975
8.265027322e-06 1.0001358149495811
8.13061872e-06 1.0001358154479345
8.000512033e-06 1.0001358159544576
7.874503968500002e-06 1.0001358164691505
7.752403846e-06 1.0001358169920131
7.634032634e-06 1.0001358175230455
7.5192220715e-06 1.0001358180622475
7.407813871500001e-06 1.0001358186096192
7.299658994000001e-06 1.0001358191651608
7.1946169775e-06 1.0001358197288719
7.092555331999999e-06 1.0001358203007529
6.9933489825e-06 1.0001358208808035
6.896879756e-06 1.000135821469024
6.8030359125e-06 1.0001358220654142
6.711711712000001e-06 1.000135822669974
6.6228070175e-06 1.0001358232827036
6.536226931000001e-06 1.000135823903603
6.451881452e-06 1.000135824532672
6.3696851669999994e-06 1.0001358251699108
6.289556962e-06 1.0001358258153192
6.211419753e-06 1.0001358264688975
6.135200241e-06 1.0001358271306455
6.060828681e-06 1.0001358278005632
5.988238669e-06 1.0001358284786506
5.917366946500001e-06 1.0001358291649078
5.8481532145e-06 1.0001358298593346
5.7805399625e-06 1.0001358305619312
5.7144723095000005e-06 1.0001358312726976
5.649897855e-06 1.0001358319916336
5.5867665419999996e-06 1.0001358327187395
5.5250305254999994e-06 1.000135833454015
5.464644052e-06 1.0001358341974602
5.4055633475e-06 1.0001358349490752
5.347746511e-06 1.0001358357088599
5.2911534155e-06 1.0001358364768143
5.235745614e-06 1.0001358372529385
5.181486254e-06 1.0001358380372325
5.1283399955e-06 1.000135838829696
5.0762729335e-06 1.0001358396303293
5.025252525500001e-06 1.0001358404391325
4.975247525000001e-06 1.0001358412561052
4.926227917e-06 1.0001358420812478
4.8781648579999995e-06 1.00013584291456
4.83103062e-06 1.000135843756042
4.784798535000001e-06 1.0001358446056936
4.739442947e-06 1.0001358454635152
4.694939164000001e-06 1.0001358463295063
4.651263413e-06 1.0001358472036672
4.6083927965e-06 1.0001358480859979
4.566305254e-06 1.0001358489764982
4.524979525e-06 1.0001358498751682
4.4843951095e-06 1.000135850782008
4.4445322375e-06 1.0001358516970176
4.4053718365e-06 1.0001358526201969
4.3668954995e-06 1.0001358535515459
4.3290854575e-06 1.0001358544910646
4.291924551e-06 1.000135855438753
4.255396205e-06 1.0001358563946112
4.219484404e-06 1.0001358573586392
4.1841736695e-06 1.0001358583308366
4.149449036e-06 1.000135859311204
4.1152960305e-06 1.0001358602997412
4.081700653e-06 1.000135861296448
4.0486493575e-06 1.0001358623013246
4.0161290325e-06 1.0001358633143709
3.984126984e-06 1.0001358643355869
3.952630921e-06 1.0001358653649726
3.921628936999999e-06 1.000135866402528
3.8911094960000005e-06 1.0001358674482532
3.861061419e-06 1.0001358685021482
3.8314738695e-06 1.0001358695642126
3.8023363405000003e-06 1.000135870634447
3.773638642e-06 1.0001358717128512
3.74537089e-06 1.000135872799425
3.7175234940000003e-06 1.0001358738941686
3.6900871460000002e-06 1.000135874997082
3.663052812e-06 1.000135876108165
3.636411721e-06 1.0001358772274176
3.6101553540000002e-06 1.00013587835484
3.5842754365e-06 1.0001358794904323
3.5587639310000003e-06 1.0001358806341942
3.5336130260000004e-06 1.000135881786126
3.5088151290000003e-06 1.0001358829462272
3.4843628595000003e-06 1.0001358841144983
3.460249042e-06 1.0001358852909392
3.436466698e-06 1.0001358864755496
3.4130090389999996e-06 1.00013588766833
3.3898694609999996e-06 1.00013588886928
3.367041538e-06 1.0001358900783996
3.3445190155e-06 1.0001358912956892
3.306010929e-06 1.0001358934348819
3.2522474884999996e-06 1.0001358965495906
3.2002048135e-06 1.0001358997153602
3.1498015875e-06 1.0001359029321906
3.1009615385000002e-06 1.0001359062000819
3.0536130535000003e-06 1.0001359095190339
3.0076888285e-06 1.0001359128890466
2.963125549e-06 1.0001359163101202
2.919863598e-06 1.0001359197822546
2.877846791e-06 1.0001359233054496
2.8370221325000005e-06 1.0001359268797057
2.7973395930000003e-06 1.0001359305050226
2.7587519024999997e-06 1.0001359341814
2.721214365e-06 1.0001359379088386
2.684684685e-06 1.0001359416873377
2.649122807e-06 1.0001359455168977
2.614490772e-06 1.0001359493975186
2.5807525805000004e-06 1.0001359533292
2.547874067e-06 1.0001359573119424
2.5158227849999997e-06 1.0001359613457457
2.484567901e-06 1.0001359654306097
2.4540800959999997e-06 1.0001359695665344
2.424331472e-06 1.00013597375352
2.3952954675e-06 1.0001359779915664
2.3669467785e-06 1.0001359822806737
2.3392612855e-06 1.0001359866208417
2.3122159850000004e-06 1.0001359910120704
2.2857889240000003e-06 1.00013599545436
2.2599591419999998e-06 1.0001359999477104
2.2347066165e-06 1.0001360044921217
2.21001221e-06 1.0001360090875937
2.1858576205e-06 1.0001360137341264
2.1622253384999998e-06 1.00013601843172
2.139098604e-06 1.0001360231803744
2.1164613660000002e-06 1.0001360279800897
2.0942982455e-06 1.0001360328308655
2.0725945015e-06 1.0001360377327024
2.0513359985e-06 1.0001360426855999
2.0305091734999997e-06 1.0001360476895584
2.01010101e-06 1.0001360527445775
1.9900990100000002e-06 1.0001360578506575
1.970491167e-06 1.0001360630077982
1.9512659435000002e-06 1.0001360682159999
1.932412248e-06 1.0001360734752622
1.913919414e-06 1.0001360787855855
1.895777179e-06 1.0001360841469695
1.877975666e-06 1.0001360895594142
1.8605053655e-06 1.00013609502292
1.8433571185e-06 1.0001361005374865
1.8265221015e-06 1.0001361061031135
1.8099918100000002e-06 1.0001361117198015
1.793758044e-06 1.0001361173875503
1.777812895e-06 1.00013612310636
1.7621487345000002e-06 1.0001361288762305
1.7467582000000001e-06 1.0001361346971616
1.731634183e-06 1.0001361405691536
1.71676982e-06 1.0001361464922065
1.7021584815e-06 1.0001361524663201
1.6877937615e-06 1.0001361584914943
1.673669468e-06 1.0001361645677294
1.6597796144999999e-06 1.0001361706950254
1.6461184119999999e-06 1.0001361768733823
1.632680261e-06 1.0001361831028
1.619459743e-06 1.0001361893832783
1.606451613e-06 1.0001361957148174
1.5936507935e-06 1.0001362020974176
1.5810523684999997e-06 1.0001362085310783
1.5686515750000001e-06 1.0001362150157997
1.5564437985e-06 1.0001362215515823
1.5444245675e-06 1.0001362281384256
1.5325895475e-06 1.0001362347763296
1.520934536e-06 1.0001362414652943
1.5094554565e-06 1.00013624820532
1.4981483555e-06 1.0001362549964066
1.487009397e-06 1.0001362618385539
1.476034858e-06 1.0001362687317616
1.465221125e-06 1.0001362756760301
1.4545646885e-06 1.0001362826713598
1.4440621414999998e-06 1.0001362897177504
1.433710175e-06 1.0001362968152012
1.4235055725e-06 1.0001363039637134
1.4134452100000002e-06 1.0001363111632864
1.4035260515e-06 1.0001363184139198
1.393745144e-06 1.0001363257156142
1.3840996169999998e-06 1.0001363330683695
1.3745866795000002e-06 1.0001363404721852
1.365203616e-06 1.000136347927062
1.3559477845e-06 1.0001363554329998
1.346816615e-06 1.0001363629899984
1.337807606e-06 1.0001363705980577
1.3289183219999999e-06 1.0001363782571777
1.3201463925000002e-06 1.0001363859673582
1.3114895080000001e-06 1.0001363937285999
1.3029454205000002e-06 1.0001364015409024
1.2945119400000002e-06 1.000136409404265
1.2861869315000001e-06 1.0001364173186893
1.2779683160000001e-06 1.0001364252841745
1.2698540675e-06 1.0001364333007199
1.26184221e-06 1.0001364413683262
1.2539308175e-06 1.0001364494869935
1.2461180125e-06 1.0001364576567213
1.2384019629999999e-06 1.0001364658775103
1.230780883e-06 1.00013647414936
1.2232530299999999e-06 1.0001364824722703
1.2158167035000002e-06 1.0001364908462416
1.2084702445000002e-06 1.0001364992712736
1.2012120335000001e-06 1.0001365077473665
1.19404049e-06 1.0001365162745204
1.1869540715e-06 1.0001365248527343
1.1799512705e-06 1.0001365334820094
1.1730306155e-06 1.0001365421623458
1.1661906705e-06 1.0001365508937423
1.159430031e-06 1.0001365596761997
1.1527473255e-06 1.0001365685097185
1.146141215e-06 1.0001365773942976
1.1396103895000001e-06 1.0001365863299376
1.1331535695000002e-06 1.0001365953166383
1.1267695045e-06 1.0001366043543995
1.120456971e-06 1.0001366134432217
1.1142147735000001e-06 1.0001366225831054
1.081871345e-06 1.0001366725018863
1.0263157895e-06 1.0001367695173595
9.761904762e-07 1.0001368716389196
9.3073593075e-07 1.000136978866565
8.8932806325e-07 1.0001370912002951
8.514492753500001e-07 1.000137208640109
8.1666666665e-07 1.0001373311860058
7.846153846e-07 1.0001374588379854
7.5498575495e-07 1.0001375915960473
7.275132275e-07 1.000137729460191
7.0197044335e-07 1.0001378724304164
6.7816091955e-07 1.0001380205067234
6.559139785e-07 1.0001381736891115
6.350806451500001e-07 1.000138331977581
6.1553030305e-07 1.0001384953721308
5.971479501e-07 1.000138663872762
5.7983193275e-07 1.0001388374794744
5.634920635e-07 1.0001390161922665
5.4804804805e-07 1.0001392000111398
5.33428165e-07 1.0001393889360937
5.195681511500001e-07 1.0001395829671276
5.064102564e-07 1.0001397821042424
4.93902439e-07 1.0001399863474376
4.819976771e-07 1.000140195696713
4.7065337765e-07 1.000140410152068
4.598308668e-07 1.0001406297135045
4.4949494945e-07 1.0001408543810215
4.3961352655e-07 1.0001410841546177
4.301572618e-07 1.0001413190342936
4.210992908e-07 1.0001415590200502
